0,1,2,3,4,5,6,7,8,9,10,11,12,13,14,15,16,17,18,19,20,21,22,23,24,25,26,27,28,29,30,31,32,33,34,35,36,37,38,39,40,41,42,43,44,45,46,47,48,49,50,51,52,53,54,55,56,57,58,59,60,61,62,63,64,65,66,67,68,69,70,71,72,73,74,75,76,77,78,79,80,81,82,83,84,85,86,87,88,89,90,91,92,93,94,95,96,97,98,99,100,101,102,103,104,105,106,107,108,109,110,111,112,113,114,115,116,117,118,119,120,121,122,123,124,125,126,127,128,129,130,131,132,133,134,135,136,137,138,139,140,141,142,143,144,145,146,147,148,149,150,151,152,153,154,155,156,157,158,159,160,161,162,163,164,165,166,167,168,169,170,171,172,173,174,175,176,177,178,179,180,181,182,183,184,185,186,187,188,189,190,191,192,193,194,195,196,197,198,199,200,201,202,203,204,205,206,207,208,209,210,211,212,213,214,215,216,217,218,219,220,221,222,223,224,225,226,227,228,229,230,231,232,233,234,235,236,237,238,239,240,241,242,243,244,245,246,247,248,249,250,251,252,253,254,255,256,257,258,259,260,261,262,263,264,265,266,267,268,269,270,271,272,273,274,275,276,277,278,279,280,281,282,283,284,285,286,287,288,289,290,291,292,293,294,295,296,297,298,299,300,301,302,303,304,305,306,307,308,309,310,311,312,313,314,315,316,317,318,319,320,321,322,323,324,325,326,327,328,329,330,331,332,333,334,335,336,337,338,339,340,341,342,343,344,345,346,347,348,349,350,351,352,353,354,355,356,357,358,359,360,361,362,363,364,365,366,367,368,369,370,371,372,373,374,375,376,377,378,379,380,381,382,383,384,385,386,387,388,389,390,391,392,393,394,395,396,397,398,399,400,401,402,403,404,405,406,407,408,409,410,411,412,413,414,415,416,417,418,419,420,421,422,423,424,425,426,427,428,429,430,431,432,433,434,435,436,437,438,439,440,441,442,443,444,445,446,447,448,449,450,451,452,453,454,455,456,457,458,459,460,461,462,463,464,465,466,467,468,469,470,471,472,473,474,475,476,477,478,479,480,481,482,483,484,485,486,487,488,489,490,491,492,493,494,495,496,497,498,499,500,501,502,503,504,505,506,507,508,509,510,511,512,513,514,515,516,517,518,519,520,521,522,523,524,525,526,527,528,529,530,531,532,533,534,535,536,537,538,539,540,541,542,543,544,545,546,547,548,549,550,551,552,553,554,555,556,557,558,559,560,561,562,563,564,565,566,567,568,569,570,571,572,573,574,575,576,577,578,579,580,581,582,583,584,585,586,587,588,589,590,591,592,593,594,595,596,597,598,599,600,601,602,603,604,605,606,607,608,609,610,611,612,613,614,615,616,617,618,619,620,621,622,623,624,625,626,627,628,629,630,631,632,633,634,635,636,637,638,639,640,641,642,643,644,645,646,647,648,649,650,651,652,653,654,655,656,657,658,659,660,661,662,663,664,665,666,667,668,669,670,671,672,673,674,675,676,677,678,679,680,681,682,683,684,685,686,687,688,689,690,691,692,693,694,695,696,697,698,699,700,701,702,703,704,705,706,707,708,709,710,711,712,713,714,715,716,717,718,719,720,721,722,723,724,725,726,727,728,729,730,731,732,733,734,735,736,737,738,739,740,741,742,743,744,745,746,747,748,749,750,751,752,753,754,755,756,757,758,759,760,761,762,763,764,765,766,767,768,769,770,771,772,773,774,775,776,777,778,779,780,781,782,783,784,785,786,787,788,789,790,791,792,793,794,795,796,797,798,799,800,801,802,803,804,805,806,807,808,809,810,811,812,813,814,815,816,817,818,819,820,821,822,823,824,825,826,827,828,829,830,831,832,833,834,835,836,837,838,839,840,841,842,843,844,845,846,847,848,849,850,851,852,853,854,855,856,857,858,859,860,861,862,863,864,865,866,867,868,869,870,871,872,873,874,875,876,877,878,879,880,881,882,883,884,885,886,887,888,889,890,891,892,893,894,895,896,897,898,899,900,901,902,903,904,905,906,907,908,909,910,911,912,913,914,915,916,917,918,919,920,921,922,923,924,925,926,927,928,929,930,931,932,933,934,935,936,937,938,939,940,941,942,943,944,945,946,947,948,949,950,951,952,953,954,955,956,957,958,959,960,961,962,963,964,965,966,967,968,969,970,971,972,973,974,975,976,977,978,979,980,981,982,983,984,985,986,987,988,989,990,991,992,993,994,995,996,997,998,999,1000,1001,1002,1003,1004,1005,1006,1007,1008,1009,1010,1011,1012,1013,1014,1015,1016,1017,1018,1019,1020,1021,1022,1023,1024,1025,1026,1027,1028,1029,1030,1031,1032,1033,1034,1035,1036,1037,1038,1039,1040,1041,1042,1043,1044,1045,1046,1047,1048,1049,1050,1051,1052,1053,1054,1055,1056,1057,1058,1059,1060,1061,1062,1063,1064,1065,1066,1067,1068,1069,1070,1071,1072,1073,1074,1075,1076,1077,1078,1079,1080,1081,1082,1083,1084,1085,1086,1087,1088,1089,1090,1091,1092,1093,1094,1095,1096,1097,1098,1099,1100,1101,1102,1103,1104,1105,1106,1107,1108,1109,1110,1111,1112,1113,1114,1115,1116,1117,1118,1119,1120,1121,1122,1123,1124,1125,1126,1127,1128,1129,1130,1131,1132,1133,1134,1135,1136,1137,1138,1139,1140,1141,1142,1143,1144,1145,1146,1147,1148,1149,1150,1151,1152,1153,1154,1155,1156,1157,1158,1159,1160,1161,1162,1163,1164,1165,1166,1167,1168,1169,1170,1171,1172,1173,1174,1175,1176,1177,1178,1179,1180,1181,1182,1183,1184,1185,1186,1187,1188,1189,1190,1191,1192,1193,1194,1195,1196,1197,1198,1199,1200,1201,1202,1203,1204,1205,1206,1207,1208,1209,1210,1211,1212,1213,1214,1215,1216,1217,1218,1219,1220,1221,1222,1223,1224,1225,1226,1227,1228,1229,1230,1231,1232,1233,1234,1235,1236,1237,1238,1239,1240,1241,1242,1243,1244,1245,1246,1247,1248,1249,1250,1251,1252,1253,1254,1255,1256,1257,1258,1259,1260,1261,1262,1263,1264,1265,1266,1267,1268,1269,1270,1271,1272,1273,1274,1275,1276,1277,1278,1279,1280,1281,1282,1283,1284,1285,1286,1287,1288,1289,1290,1291,1292,1293,1294,1295,1296,1297,1298,1299,1300,1301,1302,1303,1304,1305,1306,1307,1308,1309,1310,1311,1312,1313,1314,1315,1316,1317,1318,1319,1320,1321,1322,1323,1324,1325,1326,1327,1328,1329,1330,1331,1332,1333,1334,1335,1336,1337,1338,1339,1340,1341,1342,1343,1344,1345,1346,1347,1348,1349,1350,1351,1352,1353,1354,1355,1356,1357,1358,1359,1360,1361,1362,1363,1364,1365,1366,1367,1368,1369,1370,1371,1372,1373,1374,1375,1376,1377,1378,1379,1380,1381,1382,1383,1384,1385,1386,1387,1388,1389,1390,1391,1392,1393,1394,1395,1396,1397,1398,1399,1400,1401,1402,1403,1404,1405,1406,1407,1408,1409,1410,1411,1412,1413,1414,1415,1416,1417,1418,1419,1420,1421,1422,1423,1424,1425,1426,1427,1428,1429,1430,1431,1432,1433,1434,1435,1436,1437,1438,1439,1440,1441,1442,1443,1444,1445,1446,1447,1448,1449,1450,1451,1452,1453,1454,1455,1456,1457,1458,1459,1460,1461,1462,1463,1464,1465,1466,1467,1468,1469,1470,1471,1472,1473,1474,1475,1476,1477,1478,1479,1480,1481,1482,1483,1484,1485,1486,1487,1488,1489,1490,1491,1492,1493,1494,1495,1496,1497,1498,1499,1500,1501,1502,1503,1504,1505,1506,1507,1508,1509,1510,1511,1512,1513,1514,1515,1516,1517,1518,1519,1520,1521,1522,1523,1524,1525,1526,1527,1528,1529,1530,1531,1532,1533,1534,1535,1536,1537,1538,1539,1540,1541,1542,1543,1544,1545,1546,1547,1548,1549,1550,1551,1552,1553,1554,1555,1556,1557,1558,1559,1560,1561,1562,1563,1564,1565,1566,1567,1568,1569,1570,1571,1572,1573,1574,1575,1576,1577,1578,1579,1580,1581,1582,1583,1584,1585,1586,1587,1588,1589,1590,1591,1592,1593,1594,1595,1596,1597,1598,1599,1600,1601,1602,1603,1604,1605,1606,1607,1608,1609,1610,1611,1612,1613,1614,1615,1616,1617,1618,1619,1620,1621,1622,1623,1624,1625,1626,1627,1628,1629,1630,1631,1632,1633,1634,1635,1636,1637,1638,1639,1640,1641,1642,1643,1644,1645,1646,1647,1648,1649,1650,1651,1652,1653,1654,1655,1656,1657,1658,1659,1660,1661,1662,1663,1664,1665,1666,1667,1668,1669,1670,1671,1672,1673,1674,1675,1676,1677,1678,1679,1680,1681,1682,1683,1684,1685,1686,1687,1688,1689,1690,1691,1692,1693,1694,1695,1696,1697,1698,1699,1700,1701,1702,1703,1704,1705,1706,1707,1708,1709,1710,1711,1712,1713,1714,1715,1716,1717,1718,1719,1720,1721,1722,1723,1724,1725,1726,1727,1728,1729,1730,1731,1732,1733,1734,1735,1736,1737,1738,1739,1740,1741,1742,1743,1744,1745,1746,1747,1748,1749,1750,1751,1752,1753,1754,1755,1756,1757,1758,1759,1760,1761,1762,1763,1764,1765,1766,1767,1768,1769,1770,1771,1772,1773,1774,1775,1776,1777,1778,1779,1780,1781,1782,1783,1784,1785,1786,1787,1788,1789,1790,1791,1792,1793,1794,1795,1796,1797,1798,1799,1800,1801,1802,1803,1804,1805,1806,1807,1808,1809,1810,1811,1812,1813,1814,1815,1816,1817,1818,1819,1820,1821,1822,1823,1824,1825,1826,1827,1828,1829,1830,1831,1832,1833,1834,1835,1836,1837,1838,1839,1840,1841,1842,1843,1844,1845,1846,1847,1848,1849,1850,1851,1852,1853,1854,1855,1856,1857,1858,1859,1860,1861,1862,1863,1864,1865,1866,1867,1868,1869,1870,1871,1872,1873,1874,1875,1876,1877,1878,1879,1880,1881,1882,1883,1884,1885,1886,1887,1888,1889,1890,1891,1892,1893,1894,1895,1896,1897,1898,1899,1900,1901,1902,1903,1904,1905,1906,1907,1908,1909,1910,1911,1912,1913,1914,1915,1916,1917,1918,1919,1920,1921,1922,1923,1924,1925,1926,1927,1928,1929,1930,1931,1932,1933,1934,1935,1936,1937,1938,1939,1940,1941,1942,1943,1944,1945,1946,1947,1948,1949,1950,1951,1952,1953,1954,1955,1956,1957,1958,1959,1960,1961,1962,1963,1964,1965,1966,1967,1968,1969,1970,1971,1972,1973,1974,1975,1976,1977,1978,1979,1980,1981,1982,1983,1984,1985,1986,1987,1988,1989,1990,1991,1992,1993,1994,1995,1996,1997,1998,1999,2000,2001,2002,2003,2004,2005,2006,2007,2008,2009,2010,2011,2012,2013,2014,2015,2016,2017,2018,2019,2020,2021,2022,2023,2024,2025,2026,2027,2028,2029,2030,2031,2032,2033,2034,2035,2036,2037,2038,2039,2040,2041,2042,2043,2044,2045,2046,2047,2048,2049,2050,2051,2052,2053,2054,2055,2056,2057,2058,2059,2060,2061,2062,2063,2064,2065,2066,2067,2068,2069,2070,2071,2072,2073,2074,2075,2076,2077,2078,2079,2080,2081,2082,2083,2084,2085,2086,2087,2088,2089,2090,2091,2092,2093,2094,2095,2096,2097,2098,2099,2100,2101,2102,2103,2104,2105,2106,2107,2108,2109,2110,2111,2112,2113,2114,2115,2116,2117,2118,2119,2120,2121,2122,2123,2124,2125,2126,2127,2128,2129,2130,2131,2132,2133,2134,2135,2136,2137,2138,2139,2140,2141,2142,2143,2144,2145,2146,2147,2148,2149,2150,2151,2152,2153,2154,2155,2156,2157,2158,2159,2160,2161,2162,2163,2164,2165,2166,2167,2168,2169,2170,2171,2172,2173,2174,2175,2176,2177,2178,2179,2180,2181,2182,2183,2184,2185,2186,2187,2188,2189,2190,2191,2192,2193,2194,2195,2196,2197,2198,2199,2200,2201,2202,2203,2204,2205,2206,2207,2208,2209,2210,2211,2212,2213,2214,2215,2216,2217,2218,2219,2220,2221,2222,2223,2224,2225,2226,2227,2228,2229,2230,2231,2232,2233,2234,2235,2236,2237,2238,2239,2240,2241,2242,2243,2244,2245,2246,2247,2248,2249,2250,2251,2252,2253,2254,2255,2256,2257,2258,2259,2260,2261,2262,2263,2264,2265,2266,2267,2268,2269,2270,2271,2272,2273,2274,2275,2276,2277,2278,2279,2280,2281,2282,2283,2284,2285,2286,2287,2288,2289,2290,2291,2292,2293,2294,2295,2296,2297,2298,2299,2300,2301,2302,2303,2304,2305,2306,2307,2308,2309,2310,2311,2312,2313,2314,2315,2316,2317,2318,2319,2320,2321,2322,2323,2324,2325,2326,2327,2328,2329,2330,2331,2332,2333,2334,2335,2336,2337,2338,2339,2340,2341,2342,2343,2344,2345,2346,2347,2348,2349,2350,2351,2352,2353,2354,2355,2356,2357,2358,2359,2360,2361,2362,2363,2364,2365,2366,2367,2368,2369,2370,2371,2372,2373,2374,2375,2376,2377,2378,2379,2380,2381,2382,2383,2384,2385,2386,2387,2388,2389,2390,2391,2392,2393,2394,2395,2396,2397,2398,2399,2400,2401,2402,2403,2404,2405,2406,2407,2408,2409,2410,2411,2412,2413,2414,2415,2416,2417,2418,2419,2420,2421,2422,2423,2424,2425,2426,2427,2428,2429,2430,2431,2432,2433,2434,2435,2436,2437,2438,2439,2440,2441,2442,2443,2444,2445,2446,2447,2448,2449,2450,2451,2452,2453,2454,2455,2456,2457,2458,2459,2460,2461,2462,2463,2464,2465,2466,2467,2468,2469,2470,2471,2472,2473,2474,2475,2476,2477,2478,2479,2480,2481,2482,2483,2484,2485,2486,2487,2488,2489,2490,2491,2492,2493,2494,2495,2496,2497,2498,2499,2500,2501,2502,2503,2504,2505,2506,2507,2508,2509,2510,2511,2512,2513,2514,2515,2516,2517,2518,2519,2520,2521,2522,2523,2524,2525,2526,2527,2528,2529,2530,2531,2532,2533,2534,2535,2536,2537,2538,2539,2540,2541,2542,2543,2544,2545,2546,2547,2548,2549,2550,2551,2552,2553,2554,2555,2556,2557,2558,2559,2560,2561,2562,2563,2564,2565,2566,2567,2568,2569,2570,2571,2572,2573,2574,2575,2576,2577,2578,2579,2580,2581,2582,2583,2584,2585,2586,2587,2588,2589,2590,2591,2592,2593,2594,2595,2596,2597,2598,2599,2600,2601,2602,2603,2604,2605,2606,2607,2608,2609,2610,2611,2612,2613,2614,2615,2616,2617,2618,2619,2620,2621,2622,2623,2624,2625,2626,2627,2628,2629,2630,2631,2632,2633,2634,2635,2636,2637,2638,2639,2640,2641,2642,2643,2644,2645,2646,2647,2648,2649,2650,2651,2652,2653,2654,2655,2656,2657,2658,2659,2660,2661,2662,2663,2664,2665,2666,2667,2668,2669,2670,2671,2672,2673,2674,2675,2676,2677,2678,2679,2680,2681,2682,2683,2684,2685,2686,2687,2688,2689,2690,2691,2692,2693,2694,2695,2696,2697,2698,2699,2700,2701,2702,2703,2704,2705,2706,2707,2708,2709,2710,2711,2712,2713,2714,2715,2716,2717,2718,2719,2720,2721,2722,2723,2724,2725,2726,2727,2728,2729,2730,2731,2732,2733,2734,2735,2736,2737,2738,2739,2740,2741,2742,2743,2744,2745,2746,2747,2748,2749,2750,2751,2752,2753,2754,2755,2756,2757,2758,2759,2760,2761,2762,2763,2764,2765,2766,2767,2768,2769,2770,2771,2772,2773,2774,2775,2776,2777,2778,2779,2780,2781,2782,2783,2784,2785,2786,2787,2788,2789,2790,2791,2792,2793,2794,2795,2796,2797,2798,2799,2800,2801,2802,2803,2804,2805,2806,2807,2808,2809,2810,2811,2812,2813,2814,2815,2816,2817,2818,2819,2820,2821,2822,2823,2824,2825,2826,2827,2828,2829,2830,2831,2832,2833,2834,2835,2836,2837,2838,2839,2840,2841,2842,2843,2844,2845,2846,2847,2848,2849,2850,2851,2852,2853,2854,2855,2856,2857,2858,2859,2860,2861,2862,2863,2864,2865,2866,2867,2868,2869,2870,2871,2872,2873,2874,2875,2876,2877,2878,2879,2880,2881,2882,2883,2884,2885,2886,2887,2888,2889,2890,2891,2892,2893,2894,2895,2896,2897,2898,2899,2900,2901,2902,2903,2904,2905,2906,2907,2908,2909,2910,2911,2912,2913,2914,2915,2916,2917,2918,2919,2920,2921,2922,2923,2924,2925,2926,2927,2928,2929,2930,2931,2932,2933,2934,2935,2936,2937,2938,2939,2940,2941,2942,2943,2944,2945,2946,2947,2948,2949,2950,2951,2952,2953,2954,2955,2956,2957,2958,2959,2960,2961,2962,2963,2964,2965,2966,2967,2968,2969,2970,2971,2972,2973,2974,2975,2976,2977,2978,2979,2980,2981,2982,2983,2984,2985,2986,2987,2988,2989,2990,2991,2992,2993,2994,2995,2996,2997,2998,2999,3000,3001,3002,3003,3004,3005,3006,3007,3008,3009,3010,3011,3012,3013,3014,3015,3016,3017,3018,3019,3020,3021,3022,3023,3024,3025,3026,3027,3028,3029,3030,3031,3032,3033,3034,3035,3036,3037,3038,3039,3040,3041,3042,3043,3044,3045,3046,3047,3048,3049,3050,3051,3052,3053,3054,3055,3056,3057,3058,3059
0.5512703150173857,0.6239582247633759,0.6747567210381673,0.7151106478046834,0.7917694015188923,0.9017028411486464,1.0,0.9758554618563648,0.8585979219381721,0.7235617833277579,0.5901466869062899,0.4514701334355737,0.3888107680848587,0.4951095281691762,0.6273523835011225,0.7272814373313645,0.7211346623655452,0.6828087600557016,0.6096111690967447,0.5687913370353725,0.6067625554840577,0.6451083447741195,0.6577715183005473,0.683485123808238,0.6641683208304685,0.6024204683837153,0.5300906815875233,0.4713410330801753,0.5033168610023271,0.5818970243625361,0.6487882525458128,0.6844247933970418,0.7398919057735887,0.8390136725772726,0.9500675833091052,0.9864001894638204,0.8848033808176394,0.7554712730247939,0.6226087375925116,0.5148102568180111,0.5100527817982967,0.6289969270579494,0.7245142523070554,0.7216259625536634,0.6792701318524443,0.6110745230866246,0.60262963431384,0.6448835184955808,0.6715533908758435,0.6904522104611241,0.724188231773256,0.704639928379037,0.6450274984577162,0.5730290123877362,0.5327991540725607,0.5796517679270923,0.6478476603007404,0.6858420698319709,0.722244751744014,0.7989759194925843,0.9082361825772818,0.988680137252452,0.9318837735574196,0.8067217485077638,0.6729358365106703,0.5424151257042715,0.4778220655752938,0.578681584070524,0.6910860796609493,0.7155218603315414,0.6820060054662012,0.6195039567409526,0.5983443524825645,0.6360188285926109,0.6660023829090407,0.6631226392434479,0.6868261774845608,0.7037809447154206,0.6594359361180997,0.5890333649019439,0.523149273007065,0.5059698143016651,0.5748240302829797,0.6438606580376618,0.6785140204973601,0.7145254471517934,0.8039752427403388,0.910788697267559,0.955542130165918,0.8576921004025655,0.7256110327697778,0.5889204424047074,0.4570231312742958,0.3902753338342188,0.5018088970734182,0.6278515775507505,0.7134794332256589,0.7000119296325855,0.68085792294998,0.6308566767959456,0.629534973632953,0.6608777915006336,0.6759376957382299,0.7158403814137824,0.7230964818197654,0.6850984920388106,0.6222319784436436,0.5598836248680068,0.5737205841778095,0.6475199134530674,0.7104830913137872,0.7260508787204127,0.7601461568773322,0.8527398549885081,0.9545899907210876,0.9646245267956473,0.856385743786412,0.7143909348524922,0.5707537965876734,0.4384595297342244,0.3099487350161882,0.213512214158122,0.1438833214929831,0.1725036089938547,0.2988706648933434,0.4306496794966055,0.5399179805227865,0.6749299912947886,0.8004172375666809,0.8038872041849556,0.7178259930461639,0.6689939656837169,0.6598922864594248,0.6064558105951856,0.5310095477073968,0.4747379914057945,0.4975114608869693,0.5649816949906241,0.6319607537207879,0.6664349970443597,0.647578390745843,0.6094050397175974,0.6040907053822284,0.5740928036413928,0.5562729973485663,0.6017757237568495,0.6404281851255891,0.6267851877310835,0.5118876471693996,0.3805715748707521,0.2491867211226481,0.1243967773692071,0.0965611511188226,0.2143107209312931,0.3594511748454594,0.4977453064635382,0.6322550480648177,0.7607067966077565,0.7956460980400544,0.7085920485859138,0.648471643645796,0.6132894129262407,0.5659997123402953,0.4907222456238171,0.4354725282427671,0.4561320634773209,0.5205005262476088,0.5856752808885228,0.6339012018533849,0.6193216757346613,0.5981496819244647,0.5773079979360864,0.5366442725711691,0.5355447214561893,0.602029320104434,0.6496634738713745,0.6144407436076804,0.4907247746103738,0.3583155343713406,0.2262045980726554,0.1083596223626854,0.1059574533540432,0.2057340293089895,0.3294527307585762,0.4737106378961431,0.6192395880738073,0.7557770919802898,0.8042268467695513,0.7231599716674819,0.6614070255049573,0.6218136605567812,0.5822040588491664,0.5114938356147531,0.4660133452696189,0.4937453062764687,0.5598141278158808,0.6285294046626091,0.6590965338496431,0.6379802199575275,0.6151921798542399,0.5906275790361306,0.5360318733302476,0.513253862258261,0.5777400807898672,0.6406344784933631,0.6381319844763036,0.5344706046509993,0.4028530829628907,0.2661740733935973,0.1357930833164196,0.0508308303825031,0.1194794542588075,0.2492013261651062,0.388886409586711,0.5344407420405504,0.6795457266657445,0.8077180796667611,0.8206438353820609,0.7237108751384826,0.6487851545003882,0.6155433495116864,0.5699940004978905,0.4873979524378233,0.4138736615962433,0.4030593716505768,0.4651254075841962,0.5404969888428144,0.6053199999227994,0.6199844842483739,0.6014581115321183,0.5712901756973583,0.5299872770565242,0.4932769124751885,0.5204065818023227,0.6017240241806339,0.6484640569303131,0.6370851198235248,0.520845708008701,0.3877945907585212,0.2520754393749107,0.1190838709680326,0.0,0.0084185551539555,0.130452784879953,0.2672121725856988,0.4027551250181074,0.5399496771616583,0.6758299502537914,0.8004460007588077,0.7928578343290913,0.7004782506513711,0.6481695572374679,0.6115698188111391,0.5468016695531639,0.4663238137274299,0.3526720627920845,0.369986111406654,0.3729118395384998,0.3597390636531457,0.3205097546960251,0.296495383426453,0.2846796796624105,0.2921528984005763,0.3221723201617545,0.3646645659274496,0.4088648832028028,0.4614905498684249,0.5065707236891459,0.5459758940959158,0.5719412751005666,0.5885448593785298,0.5585616742861532,0.510500129278177,0.4584922879730406,0.4055655869885735,0.3527202295067666,0.3078501177669621,0.2744052729154966,0.2469866987066837,0.2387008784335731,0.2166421488688423,0.1862687336636712,0.1366673813134955,0.0894834246002309,0.1186435330965807,0.1872853842758139,0.2722875438645684,0.3590117911598312,0.4312336602095286,0.5118859651189216,0.5990920708113716,0.6848343226257274,0.7548409232185449,0.8386679765734915,0.9247646291007392,0.9902406221066888,1.0,0.9412870350670736,0.8569375535443093,0.7783331687531962,0.7043062415425494,0.6175760830678181,0.5434150677600247,0.4659396338830133,0.3953256800658429,0.3195466957292727,0.2481049741542214,0.1989710093149237,0.2121789279245884,0.2456704647165604,0.275726842967336,0.3328657962424737,0.3768558418128118,0.4089412318793659,0.4353013512530976,0.4519350665158934,0.4486383429342657,0.4034540145721248,0.3652340646699592,0.3226675138205959,0.2993001835775573,0.2720626092451104,0.2501598594343366,0.2451867580809725,0.2660952042795435,0.2942128649851576,0.3383607397883317,0.3898335206324081,0.4334553888673027,0.4690886660425519,0.5045476504050059,0.5209503389732206,0.4833056128606428,0.4440190256007028,0.3946319008535126,0.3375848602636533,0.2910720386119818,0.2434225319224512,0.2113851975959106,0.1964220421913669,0.1951360653126563,0.1721179368409595,0.1326150453136079,0.0854927750319642,0.0579076859022595,0.1279797971606111,0.1980807602373451,0.2814045519549695,0.3684961464244805,0.4433404162605221,0.52105269128218,0.6082057305085784,0.6931022354745195,0.7627781379948004,0.8477694275947725,0.9290561813485816,0.9637537081686248,0.9176232297224952,0.8459672707248123,0.7593855917499459,0.6829646090458512,0.6067960849407386,0.5215681738626667,0.4519971653387316,0.3718794907458358,0.301782253178755,0.2300508285797793,0.1850284934012562,0.2025086444381219,0.2403673633655989,0.2682741290912767,0.3129696454023229,0.3607364879141417,0.4042907950290284,0.4336228757734011,0.4193022270557742,0.4149070801418872,0.3910346908720687,0.3516459941180963,0.3117846743367876,0.2853794902819384,0.2605455830311345,0.2396319569727807,0.224032400736899,0.253315467185442,0.2895405190975286,0.3252385738052217,0.3621830441662523,0.4091777480879432,0.4510159389233901,0.4808175829203334,0.4827034110321442,0.4480678811963656,0.3875807286001578,0.3359217336356832,0.2852414089692949,0.2364904587691056,0.2010026889719012,0.1765629011523004,0.1696012927988839,0.1523046430060848,0.1358137594586175,0.0918327487829722,0.0279150345870475,0.0,0.0622696277286674,0.1383371763397063,0.2235565742618841,0.2934214471093268,0.3777523110097727,0.4649779851636961,0.5481351686856457,0.6184621117236309,0.7045525749131363,0.7884634963741934,0.8571324500420667,0.901068587955688,0.8704851818566484,0.7920475306961627,0.71856280826269,0.63941003579979,0.5522198311478967,0.4649846799130142,0.3787005577895277,0.3078095766662052,0.228145725201863,0.1610928591875935,0.1151942631763316,0.1265138846860929,0.1487174261380675,0.1957452334891201,0.2463994972634271,0.2993025407051539,0.3430406639451475,0.3714329181619522,0.3717885569261852,0.3507172840475858,0.3208219872811471,0.2878555081895393,0.2667334209538881,0.2614461689218896,0.2449058932426964,0.2300260740455244,0.2388903206138937,0.2638472571013541,0.3018760785130285,0.3317320850721565,0.36485678541935,0.4046933970902855,0.4172780012487727,0.4158812259626367,0.3849088261356361,0.3335999809675076,0.2888262865440958,0.2361577116521753,0.1992879716326925,0.1727978161976939,0.1716836999787978,0.1707504319940915,0.1407487847765676,0.1057804856518247,0.0602793875524301,0.0200347111542238,0.0776874431743328,0.1514685278138166,0.2374230013933167,0.3076185723132991,0.3907745186671194,0.4779892857649623,0.5586327515753022,0.6308493978849312,0.7175637039805967,0.7989612164908966,0.8699573458758527,0.921915159995418,0.8981985438457185,0.8231343893886036,0.747440855487949,0.6706081488982565,0.5841032606922156,0.5122645550369174,0.431131375245902,0.3487390984085832,0.2780644392216502,0.1919351293071742,0.1364528566676006,0.150685040324594,0.1693860658259054,0.199712881553014,0.267272670096768,0.3175798747690277,0.3698659668970596,0.4098652273080216,0.4170967305333284,0.3968059613415606,0.3528244406990599,0.3235568085193101,0.2961456649596132,0.2795032482723352,0.2613432478586288,0.2384107236518811,0.2188920631572717,0.2215563395211539,0.2585375370061999,0.3015935826732021,0.3569443127550067,0.3916555305565019,0.4313421845093677,0.4627403669871621,0.4902365716166548,0.5761844578372761,0.5573550873861048,0.5269491892239442,0.5171823949094088,0.4965471887896453,0.4599230883027299,0.4146692662346352,0.3818610587909101,0.321631475085367,0.2450941436322735,0.1697209787509948,0.1208413361057694,0.060189039335678,0.0162452024448196,0.0,0.0531487650870401,0.1178632754530735,0.1644846558236636,0.2388941547122587,0.2986549851488607,0.3481547971976946,0.3903214973085136,0.4357915054945578,0.4946623546050359,0.5671887940166562,0.6433669369650783,0.7050298557415675,0.7751832936980807,0.8485078193521121,0.905028498955316,0.9142046457399596,0.852160860017511,0.7940566851737851,0.7339155866509142,0.6748767934743123,0.6113370256321846,0.5598775669390115,0.5116586917480683,0.4790301316234355,0.4747466991715368,0.4777518746467581,0.5005915825630329,0.5259906079526839,0.5420168537306012,0.5597683230699682,0.5592315450550593,0.5361259390544282,0.4961671543172268,0.4618446539548415,0.4351058957959828,0.4497984763751996,0.4632727642287815,0.4747083651973209,0.4851046377893646,0.4965470043599644,0.4889180420328101,0.4822699739693279,0.4966535969404706,0.5086120434109027,0.4996244955287361,0.4967898397798391,0.5109595805167779,0.5551673244496578,0.593807948957477,0.6362404058039468,0.631010375136432,0.6107709154132852,0.5872130285947286,0.5680632697727996,0.5491173464643131,0.5359714372686089,0.4971103181656975,0.4506853777744792,0.4183717268320066,0.4177892996936863,0.4704447350784586,0.5342234025141224,0.6105594834773886,0.6752626714769883,0.7419402688565784,0.806666857321189,0.8638560079067221,0.8771962225185952,0.8282616251965056,0.7646020840818619,0.7023282091310201,0.6446559086105301,0.5936034076320666,0.5560611982684147,0.5349555004600584,0.5209693128524631,0.5386977037924097,0.5580264495161211,0.5776823257414279,0.6018241368807216,0.6207446604667433,0.6191166077775758,0.5837662327980264,0.5540469964424699,0.518093014548132,0.4891330960785534,0.4731719513001642,0.4380221762186953,0.4103916407644652,0.4088536079314839,0.4088519958162107,0.4059887711708501,0.3956917189544855,0.4085611709555206,0.4086031171854203,0.39212549124289,0.3666837661751434,0.3693719184119439,0.4065809783046084,0.4574443762940867,0.4996140290568727,0.5178066397971071,0.497638102633978,0.4755000283315951,0.4747361495270659,0.4742164328964198,0.4469482253453565,0.3966290284543272,0.3555350249039577,0.3111974972544802,0.307575369930456,0.3540130775691228,0.4241789833493743,0.492058022678401,0.5557599111586926,0.6320919246517067,0.696923329091629,0.7635929604923377,0.8382416215776729,0.89623808322205,0.9202243165076248,0.8668844651922982,0.7998003499505608,0.7354423583745109,0.6719873813559682,0.6143213757712109,0.5601642060592487,0.5109544466798956,0.4880656266657013,0.4779285298575062,0.4951080613696743,0.4855384194964709,0.4967493455255862,0.5186355814214627,0.5354341130043645,0.5351720366075905,0.5160111383383921,0.4866542838960734,0.4667568846350516,0.4530791906394933,0.4528100551716858,0.4600926786108164,0.4789637432898206,0.4958497601094085,0.4938791939645597,0.4713847274180005,0.4534751709292046,0.4513540766924389,0.4311865234666392,0.4106118775887042,0.4131477638408207,0.4453038035059604,0.486661473480686,0.5326876529799254,0.5606508256312672,0.552072357539775,0.5272631594878812,0.5187163779138917,0.5181763763123302,0.4913320840697874,0.4474603733271194,0.4068467727419764,0.3680493918385461,0.3461374803217132,0.3881167955088642,0.4469528982681638,0.5223940810080747,0.5931398060381143,0.6541700580920504,0.7303818785438727,0.8038259743786726,0.8630138525563273,0.9382588932577712,0.9999999999999996,0.990714428373233,0.9313743738607044,0.8611361223157532,0.8000125529377669,0.7256664363057181,0.6668805332328449,0.6048726904365855,0.5535780217140127,0.5083512567271313,0.4967837072071646,0.4966690803116962,0.4886847643074365,0.4918453260587809,0.5219602871348341,0.5473932500568339,0.5623053166729517,0.5610307030803234,0.5404393765145068,0.5199460325084462,0.5044289902292705,0.4916618245647108,0.4800783413628271,0.5091933996406115,0.5229276302415253,0.539466270288206,0.5267140914153257,0.5138844972360177,0.4968670835885249,0.4826986351692928,0.5044209721733477,0.5067518762282353,0.478004333299082,0.4752695139772833,0.4954827348208974,0.5504936187483653,0.5927447632840468,0.6230158982005913,0.6076528792793692,0.5724001961777567,0.5411796377917115,0.5236203231435241,0.5001450693083003,0.4914282004932992,0.4489357292975282,0.3978333182914011,0.3532726729218076,0.3493374415429682,0.3920100702453033,0.4547539783659955,0.5211747078264972,0.5977057384343953,0.6661299001302634,0.7293251524087951,0.8056368285505471,0.8711051381356638,0.9329888241179418,0.9294776815707748,0.8688338389640471,0.8269209878198938,0.7740643759427255,0.7142650420710908,0.6548225878661182,0.5835064191178243,0.5288449520227592,0.4848313347857509,0.4639595255173359,0.3710338714787807,0.4069051952509753,0.36831765786985,0.3569742008482017,0.3743963543078402,0.4306583517523573,0.4992117140686796,0.5682118941718011,0.583673323742927,0.555013364769783,0.5440710711406189,0.5685607098556817,0.565271677981348,0.4944235838433963,0.406628871787742,0.3194846655422877,0.2301256118154314,0.1427834608908519,0.0587678859645931,0.0437808181270253,0.1232855211450029,0.2107256325927462,0.3008828817961457,0.3927177928479637,0.4841858491659596,0.5717466563068065,0.6618194187659285,0.7526949589824596,0.8189871234216146,0.7805093537190102,0.6983901451095456,0.6226832605541723,0.5693911562471461,0.5240598207842218,0.4608559295449291,0.4013113309784651,0.4113404229742866,0.4729545259879679,0.5319971899299181,0.5608765448261384,0.5366106977216698,0.5268260249887986,0.5492381564832214,0.5510132439208253,0.4842486560824506,0.3970652128472078,0.3089718715547935,0.2173180641408862,0.1261549599697324,0.0423797921880576,0.0194279543767929,0.0928864215033304,0.1813708575550302,0.2731084384054908,0.3647169245535047,0.4526488584808387,0.5422306735851821,0.6340159336171696,0.7238003439888085,0.8111556011240539,0.8713450047964142,0.8189203269913787,0.7308767538578682,0.6478625184895246,0.5841147924273387,0.5419149588027719,0.4865772022049546,0.4162717902728399,0.382265879181503,0.4254266094667215,0.4874031393973641,0.5379265352171068,0.5401709191087782,0.5235402026950469,0.5350866249194364,0.5630349024090477,0.5278356922251481,0.4458508996800767,0.3573511487779995,0.2696025804667609,0.181026897766844,0.0932190822302008,0.0194952891320764,0.0408819342254503,0.1287977480621149,0.2206427731389482,0.3124959572969989,0.404345915041286,0.4953695686707069,0.5825840361321559,0.6734230653233497,0.7593423572371965,0.7649816815985337,0.688236009891257,0.6105670222306774,0.549954753790403,0.5033090912031717,0.4415453081082808,0.3753189596595273,0.3509647299502452,0.4008412217392725,0.4666058841479611,0.5145902772440416,0.5098668566458489,0.4898028427412455,0.4966927372976808,0.5256367628630074,0.501287032206394,0.4225146824793161,0.335814714534445,0.2464768614427788,0.1592916096664369,0.0705701605065833,0.0,0.0300758890191382,0.1148201017925246,0.205840701031911,0.2976198586978426,0.3866795137311083,0.475068965413489,0.5667712574467565,0.6577790126044987,0.7447727529899024,0.8122960959330712,0.7708625637699276,0.687001797845348,0.6058447554692932,0.5469730265539479,0.5050598417483987,0.4457417475037304,0.3770601991503944,0.3593646843198179,0.4130007866384243,0.4757687852406311,0.5135682551812917,0.475897416858227,0.4128850507752094,0.3959900755848314,0.4564550199759869,0.5174603218733109,0.5596169899440151,0.6177139092503745,0.6962325985170696,0.7735303409058867,0.860298519871461,0.940104693953934,0.9448908177924004,0.8674332103392803,0.7775522901680743,0.6903450075450863,0.5994829205404189,0.5085969272716606,0.4213805506864371,0.331118325847008,0.2793165178432063,0.3433565130017926,0.4341481887339233,0.5145026361513818,0.5516965885624983,0.5331843624278139,0.5096995058719729,0.5229483986475107,0.541531079098539,0.5105896167126063,0.4493118611866822,0.3889925447471138,0.396549103645617,0.4629655857106204,0.5217827644938922,0.566916612025137,0.6314480315337867,0.7117828684848058,0.7966132706649043,0.8826494452798683,0.9656934363836932,1.0,0.9308609709840288,0.8420516998780225,0.7537043194519455,0.662128770030076,0.573572955529478,0.4846892394060198,0.3929372555283282,0.3080584380061691,0.3117992605957915,0.3950341518593814,0.4817167771402675,0.5585085549658808,0.587825534362697,0.5631830614237927,0.545033352177237,0.5609341214406505,0.564709319342783,0.5242315989175401,0.4646160201991859,0.4174650346178148,0.4550076965050134,0.5214153737100473,0.5697090415199537,0.6188658966549412,0.6920642705489488,0.7755918731009095,0.8615131916158592,0.9448081376501888,0.9799774107358769,0.9139041046730092,0.8246431764849782,0.7392197526527795,0.6627305837065314,0.5806289349307081,0.4930218131840116,0.4036114042669786,0.3195007581830819,0.3264947158283782,0.4115841402034423,0.4973926332879346,0.5693896161161303,0.57936231528065,0.551634272072175,0.5485428442305482,0.5758828779659817,0.5731150954756405,0.5232497647372913,0.4601691700662217,0.4307209776876607,0.4859688728554074,0.5468343426165008,0.5895944464811473,0.6460249438051064,0.7273552486685795,0.813358829918603,0.8987980850350104,0.977216730088562,0.9848025673843592,0.9072211074424248,0.8199206362564004,0.7299392987500857,0.6381087655011803,0.546260478862896,0.4582963712926559,0.4423956033683862,0.5196693244214652,0.5856297171736582,0.5925111313497093,0.5664682937659116,0.5726445522230486,0.603492456982446,0.6071709762048592,0.5528419057014637,0.4785508137046577,0.4312289469557759,0.3909206544049106,0.4084633167908102,0.4747107181320178,0.5280443939557362,0.6219357591325823,0.6797450380037198,0.713801469540817,0.7493501821297035,0.821289529407836,0.8699347130504407,0.7876308403054484,0.6649010571737941,0.5397363309418552,0.4630565908010631,0.5427011894423042,0.652819082022166,0.7395962121556812,0.7487864791009802,0.7073999983625141,0.6226751041107499,0.5322846114118418,0.5083456337163983,0.5553089003431562,0.592426863525489,0.627180165818797,0.6620521410022939,0.6501532652998518,0.5904137998349479,0.539003268844302,0.5529496691277225,0.6287493904280739,0.6970497317686655,0.7553653659749267,0.7737906618138624,0.8014458123289763,0.8930475294471405,0.92174915042242,0.8118398625299461,0.6841929365669843,0.5582860361450259,0.5026608528560903,0.5959006243502039,0.7030414035768038,0.7796571893066719,0.770050522600874,0.7214008445540343,0.6444304003147896,0.5811633463967167,0.6026022282758712,0.6481035866320441,0.6698354306214118,0.7119920757254308,0.7235845130707608,0.6798676368703434,0.6139284859765697,0.5630038171846943,0.598829862079918,0.6792682077468477,0.728538692084483,0.7310859281790973,0.7574067719320912,0.8411035972830696,0.9073113470319188,0.8372329689799032,0.7081235790803926,0.5787496189837849,0.4581381788986642,0.4502145392222907,0.5646776973584013,0.6738175468932157,0.7516532771957558,0.7465432204704929,0.6958674944948133,0.6074288467627258,0.5456070892002471,0.5604104132958749,0.6087242453426223,0.6288408596579504,0.6506199601214253,0.6592921434729373,0.607363160685968,0.538828456687436,0.4933584881665971,0.545965838769741,0.636315748841425,0.7048627279610868,0.7421609987769142,0.7367815484415439,0.7874235773664271,0.8661593859656356,0.8368006333886391,0.7133454257020055,0.5731415648858618,0.4443977216857893,0.3558669401615946,0.4343895579261376,0.5522210523212174,0.6641974064159522,0.7297160879079283,0.7369510140724524,0.6894866950123162,0.6119523851039634,0.5850037988331667,0.6284717037145886,0.6591851513863722,0.6947069920492499,0.7296625730500539,0.7246553161179166,0.6739648764246882,0.6092899759650505,0.5906852882175979,0.6661875703056568,0.7476882567860343,0.8080574350002427,0.8211246356715183,0.8577204136835395,0.9480069986399982,1.0,0.9189718278221336,0.7944444973451072,0.6635198167253353,0.5309526112613958,0.4424209834597601,0.3292202937248394,0.1947301979045073,0.1105296485229034,0.1494417197282347,0.2213007032190894,0.3551990353926864,0.4725419846813623,0.5687773384662891,0.7004833237759929,0.8132323983924192,0.8101060167182008,0.7763362370324232,0.7653082954286021,0.723206736811663,0.644941151714709,0.5593202913301321,0.5157629178107124,0.552574382071584,0.6175011149114042,0.6659756399022974,0.6617651730150205,0.6194184723946483,0.5873881572456576,0.5558627796255804,0.5061531983600807,0.5241605423504452,0.587350706610259,0.6628011073288662,0.6716526258276114,0.5907459040775707,0.4758282498833122,0.355611246386009,0.2537790499507508,0.1326275160365786,0.0102533309857895,0.0,0.1250327420059469,0.2565395841470135,0.3860718910270426,0.51347196564141,0.6406364010995391,0.7223112372333222,0.6924593697103414,0.6836236675694618,0.6511444196321219,0.5812262645655983,0.4916627828307907,0.425864413312619,0.4460484637964934,0.5044816625797162,0.574723135419017,0.6004968717459755,0.5771352461941865,0.5521115511523935,0.5084696208608745,0.4736498792608921,0.5025817536378834,0.5818716651984475,0.6659045539611892,0.6989478830475275,0.6368330296000546,0.5233511793092571,0.4023786201809578,0.2785918480487868,0.1481948021069374,0.0546394705106902,0.0897457655004601,0.2044524036955102,0.344824569231466,0.4801013969277594,0.6059641467089296,0.7198727066402903,0.7201907026579106,0.6786683062425443,0.6731577689404551,0.6594695469131486,0.5913170312838827,0.5188583028843463,0.4963825390372478,0.5421670019312237,0.6094977683729597,0.6665075277850598,0.6586751271637996,0.6186730017953366,0.593988393258631,0.5417498370343252,0.499931388834717,0.5276472876344238,0.6058782046113174,0.6815712138627643,0.7040792360343278,0.6236066510823401,0.5083927301437026,0.3852063673284052,0.2595174465646761,0.1440538340597408,0.1485179554721027,0.2681935452482209,0.4087344881074384,0.54096987993828,0.6665385932618664,0.7579660154038743,0.7320285868523979,0.7111753941374994,0.6894151045941639,0.6255501066967324,0.5474121156359968,0.4771466020564991,0.4703946050773373,0.5160255480917564,0.5795132982014404,0.5971550172872382,0.5655952735757972,0.5321579104582708,0.4841721220505648,0.4372367706142315,0.4410670929769247,0.5019590889941621,0.5938177626580599,0.6738928905873727,0.6802963975320999,0.5825130045281766,0.4663645452423082,0.3397935669385994,0.2118979579783904,0.1254509346944221,0.1889949144679041,0.3113242377068932,0.4349733007139802,0.5614972976828119,0.6932282452503693,0.7198497326485214,0.6770663267775814,0.6488371097045231,0.5973881050624925,0.5320269297609821,0.2945423938262816,0.2954163345042548,0.344715697756035,0.4267970491824204,0.4751069281131617,0.5270856183947226,0.5760999662195347,0.632690312046738,0.6611574942178224,0.6371410265695054,0.6375827659477951,0.6634304034082401,0.6666610182722241,0.6639443596443924,0.6378345226208442,0.6348191907900551,0.63481781157319,0.6353329086175084,0.6492315586913726,0.6354309108614018,0.6233699031273963,0.5764431224543838,0.5499404370450796,0.5805886792280281,0.6241187026596364,0.6348081094959275,0.6318441748272825,0.6075760212692636,0.6372939247889366,0.658304339929737,0.5841647806942047,0.4919553249121327,0.4145401157239927,0.3146361375510009,0.2187522054438764,0.1433616872037753,0.0517604998224694,0.0035985139399858,0.0266756088966122,0.1006942248251991,0.1761045883208947,0.2752650252189657,0.3662644948816327,0.4450209685764248,0.5450290054674412,0.6404914893283564,0.7156746098966913,0.8147652983017846,0.9152514419910424,1.0,0.9690292207175926,0.8931512747381207,0.8149821948289588,0.7479571279313353,0.699816356862506,0.6730522745598702,0.6590722826396984,0.6354855324610265,0.6317153052946267,0.6057253932818387,0.5880402568510901,0.540138174204861,0.4914537892761741,0.4674458033874789,0.4492628569715515,0.4743618220368484,0.4930701413009837,0.5355031316264691,0.5914942735712598,0.6286111169316486,0.6448593517282717,0.6419725161255654,0.6911492450661472,0.7012744724876212,0.7461074020623579,0.7444126018683379,0.7284637749619787,0.701900616074183,0.6985066504905735,0.6985049859184942,0.6985049859184942,0.698339094346939,0.677849784640407,0.6384584352442122,0.6348196188228767,0.6338936250993426,0.6109506242821574,0.6263392889255872,0.6561852569031545,0.6397072669498449,0.6650052816041514,0.6492109346686865,0.5753177355534351,0.4923155700517156,0.3920572881863835,0.2915409660112091,0.2014941936559955,0.1604270074731086,0.1846967005912665,0.2693636169768414,0.3477192466991798,0.4469959548687221,0.5242948070879567,0.6168266899216395,0.7101323218733979,0.787035945798916,0.8865237646766841,0.9698656307203236,0.9284892605305286,0.858243924095234,0.7910947200835379,0.7250079558019662,0.6818862106011112,0.6405653982709998,0.6348225461552008,0.6348166701523361,0.6310701966841092,0.6007086607149557,0.5673371195456687,0.5406306208435403,0.5209056762263753,0.5075990087950428,0.5221949917815945,0.541056711721013,0.5745283281350195,0.6124301262365783,0.6593579199879764,0.696610485712065,0.7126231383363786,0.7367663874592703,0.7632593097821898,0.7896483505675072,0.7924622534512329,0.7665922469604771,0.7596060357407017,0.7349294719389912,0.7563011089597378,0.7474599948793452,0.733589401256765,0.7515530328436659,0.7022870995852895,0.6685814574253781,0.6923195982886581,0.7008222560145265,0.7262181543402786,0.7303488584463604,0.7341862755395399,0.7571903520159413,0.706685802036148,0.6264246904351713,0.5275646874595958,0.4517198348308042,0.3572779617910377,0.2767134735373417,0.2032852433852117,0.2080053551894582,0.2775429264830888,0.3765740088305689,0.4557572328611776,0.5462162246842386,0.6324846565531459,0.7156306955579854,0.8159827776231907,0.907105408601578,0.9695549278590628,0.947340100510198,0.8811595897565061,0.8172154765319384,0.7703751822108851,0.7377707168471064,0.7303660075179836,0.7301592530954473,0.7103929678589029,0.6951414541068903,0.6559253095563342,0.6111074167586512,0.5855756511618049,0.5444999460800775,0.5198360976356584,0.5128860350583242,0.5539665860284337,0.5889130299585155,0.6248554107800599,0.6670020209860077,0.7188728685982184,0.7303480203739827,0.7364127633331918,0.7608696967461714,0.7474628008722792,0.7305797289710458,0.7303485730911463,0.7300716015237683,0.7092286660875722,0.6985455109722878,0.6974055335753819,0.6670764976515207,0.6360790497514648,0.634878011219099,0.6487094638543089,0.6665118395117506,0.6687939652080832,0.6939890999905121,0.6967959595691617,0.6444441894204305,0.571353575519205,0.4745306885146139,0.386745964473838,0.3049275588482656,0.2047420695237258,0.1059238926581969,0.0340276322585486,0.0,0.0482888507094401,0.147297546820452,0.2450604715071698,0.3197378119967098,0.4170307007474418,0.512659166930078,0.5877099410863194,0.6867665655489654,0.786867130242582,0.866538078832285,0.8980947148503269,0.8412046745638415,0.7931956179465152,0.7356724527257947,0.6952004005099139,0.6523276059827712,0.627505421100059,0.6036542676153154,0.6024928691784863,0.5801019885081233,0.5466836391418992,0.5084666346524447,0.4698964527391389,0.4365123544026321,0.4126540511974568,0.4270933838457491,0.4439721955277385,0.4715156572484593,0.5300486296248739,0.5719045443141644,0.6053346584623602,0.638777305428861,0.6653284449626451,0.6666613987458421,0.6666613987458421,0.6666534087998608,0.6582908410467194,0.6355696686447727,0.6570882131983327,0.722621021750558,0.7789986624260923,0.7711763986427567,0.7915737889677565,0.4382306996035038,0.4381588457146493,0.4084821842224989,0.3571243580044557,0.2974920413691623,0.2400425406895702,0.1790489968007059,0.1216977552645782,0.0593535358819695,0.0049927412279939,0.0,0.0541367375822202,0.117621818941049,0.1770500236053179,0.2305765444380217,0.2729489783864053,0.3175450943244705,0.3624289265899542,0.3866768939583617,0.4361241726972164,0.4959731693772907,0.5549149168445929,0.6184841746974453,0.6822086781050133,0.745856145871015,0.8057082186805821,0.8649753009349909,0.9285341573917324,0.9809732469123345,0.9549189809067076,0.8948545409509959,0.8365018046439793,0.7750038136643899,0.717339353224164,0.6569014765963693,0.5989151005512868,0.5413457030270058,0.4887211931794691,0.4443023316890763,0.4191194952289286,0.3990384298421549,0.361024670778162,0.3166638523054991,0.2719267307579355,0.22936110994274,0.2087707307725667,0.2327072859605982,0.27370991560099,0.3164093577259513,0.3609361935508216,0.4011852042866662,0.4247427822583881,0.420118716636395,0.4059290951446027,0.3928705988181314,0.4007415240145867,0.4344277910014943,0.4591581306151101,0.4695157851345891,0.4578859283800774,0.4141917008789931,0.3592978542204769,0.3022331957667216,0.2408016239876583,0.183286726649665,0.1205359890233092,0.0641162728740482,0.0456184288885784,0.0953272394184879,0.1581774888774428,0.2156759947557932,0.2777906178040198,0.3415083803590403,0.4051988222510375,0.4659609687758111,0.5243982412975173,0.5878763423520782,0.6516008457596464,0.7152236825849462,0.7746713059844438,0.8343300403943809,0.8979667861979054,0.9590572998420508,0.9648516455780302,0.9108436759726484,0.8504681361246044,0.7918717400038494,0.7315375195360833,0.6731349006073758,0.6215611701710207,0.572670011157219,0.5219009161056226,0.4793949725994221,0.4587446974888595,0.4398318925940244,0.4017349571284537,0.3576584950510099,0.3135797583044616,0.2805606555630792,0.2859632691157306,0.3207036566447457,0.3602490235690317,0.3972194359746365,0.4197158360278502,0.4110816932846838,0.3892133216595578,0.3708050306529512,0.370914785553483,0.4007137496197802,0.430770075967288,0.4505075424324903,0.4535423730839357,0.4185309948414656,0.365192436126932,0.3074557545444972,0.2495729534425271,0.1884568447655418,0.1267200127379194,0.0695986205551678,0.0333805290357576,0.073279718140007,0.1303754783834591,0.192490101431685,0.256207742019772,0.3195823386581994,0.377640388111338,0.4388721696254082,0.5025758259797434,0.5663003293873113,0.6299810806161675,0.6903955248636305,0.7491298430546215,0.812668291380349,0.8763927407552347,0.939242573956242,0.9666871967232524,0.9183495164966246,0.858068229941049,0.7994210925353119,0.736822120572242,0.6794596646487133,0.6192180571600968,0.56415493534819,0.5120221149695708,0.4672878183663115,0.4458330184891713,0.4224562882309847,0.3849515243173463,0.3404579162579827,0.292342117489733,0.2525980938913993,0.2449098300497453,0.2757078720160072,0.3151974702325232,0.357606562119206,0.3999541189345922,0.4379763046591419,0.4425885696475272,0.4193219971246579,0.3994773622746067,0.379221705986413,0.3899351253068969,0.4208953958703879,0.4395910295891957,0.4386097413024846,0.4104101416521731,0.3607076023521322,0.3056679504438701,0.2441949169551817,0.1837498152940108,0.1250505358631511,0.0617019823406254,0.0111783921701825,0.0257353023501532,0.0855978439189902,0.1467632963008248,0.2048526518011669,0.26825041333078,0.3319747932350735,0.3956684653481178,0.4565396349361353,0.5148847699306068,0.5783427861039311,0.6420672586356785,0.7057917620432465,0.7695152749027466,0.8325325779858223,0.890013876776505,0.9520678166426678,1.0,0.9658302609938896,0.9061458449461404,0.8471370192763062,0.7842220906312586,0.7267119759805453,0.6648063146962645,0.6060311834173936,0.5493209253373622,0.4958704849607059,0.4478975270554951,0.421446397563627,0.4017945966415009,0.3685310276458592,0.3253007267459823,0.2792908603673226,0.2376639657327591,0.2196987074429405,0.2452591615829021,0.2865843711038131,0.3290645753210331,0.371684198530673,0.4154589470302906,0.4424355144036261,0.4327259217101386,0.414821042675093,0.401851786131162,0.3884436936080223,0.4080031399215019,0.4375006183552495,0.4480770750951589,0.4443547621281353,0.416590736846879,0.3652190308626216,0.3048388131356075,0.2411578479912449,0.1785913687208079,0.1212355105876096,0.060425009956018,0.0175626908112283,0.0393311399384853,0.0972715483449132,0.1608700211914789,0.2235875688705156,0.2809519883676116,0.343518467638049,0.4072399547400739,0.4709644581476425,0.5346500547080691,0.5952383500941875,0.6538241454505372,0.7173324201406811,0.7810568810939983,0.8445323221544395,0.9029300103987123,0.9582166892967018,0.9480188395429692,0.8870568064585119,0.8295320617748311,0.7678289529255461,0.7097473505390338,0.6491642038995703,0.591609769078758,0.5302694216701368,0.4765310704036939,0.4393175285437044,0.3769848778508188,0.4258249507432351,0.4059084098014726,0.3551678259481591,0.364171726195914,0.4051788211330206,0.4721224325171745,0.5501380428172621,0.6023946418226257,0.5959150473219742,0.5755328321691265,0.5744407223948712,0.6064443574604844,0.6156143022518691,0.5459307303221356,0.4527759924923776,0.360188744011544,0.264773169391045,0.1720204218746158,0.0785299920800395,0.0143798399634638,0.0665663333762081,0.158324742136372,0.2549921462957717,0.3534847865853642,0.4492017999568353,0.5308755001214848,0.6248934836096861,0.7220713450920603,0.8146055152622144,0.8889650360095948,0.8459091132960691,0.7592661601438307,0.6808491399541413,0.626536215258037,0.5799629976422128,0.5194072971760052,0.45305845799946,0.4330411952328553,0.4877114695830008,0.5531292029879343,0.6063238171853796,0.612428065523554,0.5883850499912723,0.5876316198584278,0.617326081753007,0.6194397505016346,0.5517418700669262,0.45963238488331,0.3668972655446268,0.2690772930879702,0.1708781979594259,0.0776110550462596,0.0010370363388517,0.028341225154093,0.1185286102051581,0.2166579588999434,0.3148914499648608,0.4085207690201776,0.504196191665142,0.6025631863763631,0.6973246913320043,0.7904366587389139,0.8353104651436091,0.7614506747822641,0.6783855449533059,0.6212242032757535,0.5835661880599651,0.527695614125197,0.4692846167868015,0.4765132463960689,0.5343688404848222,0.593525395053159,0.6253618068778545,0.6142526590028531,0.602329689889099,0.6237747580614538,0.6539476896109376,0.6256423653606787,0.5435079945455566,0.4501267195143318,0.3572545420443093,0.2619071175824007,0.1692834206042218,0.0750771568937982,0.0,0.0311635724481866,0.1264284854996343,0.2249413900229916,0.3234585916031852,0.421334106251075,0.5142331225298019,0.610952310829694,0.7076664127773712,0.8001994131831606,0.866488394276678,0.8128655259654519,0.7260923561174305,0.647293838322791,0.5942210943944802,0.5477615952548679,0.4803946963666371,0.4099870256269297,0.3734855001363931,0.4132487889659367,0.4807241858674859,0.5369780265380933,0.5478597537099322,0.5261031987404988,0.5195118239010551,0.5434956443234414,0.5839175052280571,0.5693504244786648,0.4871579794617479,0.3952134047798402,0.3006592915299458,0.2079963715907656,0.1140063677939783,0.0321759159870009,0.04844296268259,0.1369827242542516,0.234993627329802,0.332622544993398,0.4253613792847109,0.5224946032274304,0.6204312730716307,0.7133699144241631,0.8005089975858909,0.7897566652166222,0.706263925189046,0.6336666863795976,0.5943146808173762,0.5476837590664169,0.479955699840218,0.4313639962013168,0.4577812488911718,0.516090919360748,0.5637225412448038,0.5420711704486684,0.4840986970552315,0.4732988809586987,0.5341680304577273,0.5939003886041933,0.6306821149384824,0.6859813653448267,0.7681193503127658,0.8600588564222328,0.9504767077398868,0.9769903325099846,0.9026245501084854,0.8093876070383722,0.7147809469631415,0.6204454917821102,0.522506614989528,0.429949647814653,0.3747771320114691,0.4423685106042797,0.5367291268209419,0.6064230091827368,0.609121893477426,0.5698639970301728,0.5434659308333293,0.5553054309663178,0.5758547163626927,0.5573582744953253,0.500938961680997,0.4358059300455003,0.4129294421275656,0.4734029277052579,0.5420964431585263,0.5963838153101045,0.6419283163940793,0.7165996476959774,0.8035449304992025,0.8937316711694999,0.977341711181661,0.9855694211903432,0.8987941492129553,0.8029044268400657,0.7095019870340832,0.6127452424115564,0.5288637902260792,0.4382712403865249,0.3407467816926209,0.2863480166130693,0.3563981428895381,0.449846385931771,0.5428684124716471,0.627989782232652,0.6768919872354694,0.6686194024243705,0.6363005254742792,0.6336326577521635,0.648714202307506,0.6382844435501395,0.5902649929464318,0.529286719058465,0.4992403721818214,0.5490449560136633,0.6035342686237685,0.6440133076878253,0.7036804807855123,0.787148980191913,0.8775443188588695,0.9639796244376716,0.9906008795551632,0.9154916467319224,0.8214974993163796,0.7284328693394105,0.6451022214875611,0.5502886050646977,0.4561335737385058,0.3789185808533114,0.4152411930967364,0.5060018508830154,0.594887851053883,0.6513954827650866,0.6482982301367913,0.6176622586986892,0.6163144157076527,0.6384432381188908,0.6316728878507655,0.5835730715676869,0.5174775020093317,0.4666033264618469,0.5019256954607069,0.5684752670111298,0.6214005570148683,0.6663889081786624,0.7348262272268741,0.8240770704950892,0.9143298898692548,0.9963706217475452,1.0,0.917882142216238,0.8231848694004981,0.7295731589794,0.6313453751530606,0.5331108969704667,0.461968521024754,0.5110795493196344,0.5989777987946535,0.6475735649790307,0.6295098843412398,0.5986426230537446,0.6041638347968276,0.6256796915241339,0.6241194486493297,0.5701431380665901,0.4988010122044272,0.439255178688931,0.3973471246827077,0.4207993490082661,0.487424215552131,0.538511523876423,0.7187096064786465,0.6843741829008185,0.6627588743488566,0.6604319024145773,0.6302034531285083,0.5617217101070757,0.4638433766454111,0.4348549268071369,0.5451436874453872,0.6701517358143056,0.790638268942693,0.8996842172521187,0.9957355386208948,1.0000000000000004,0.8942273648797943,0.7729530802430182,0.6714973576707579,0.6733588302334357,0.6676682062942576,0.6212494574080272,0.5842136423273079,0.5296407916669787,0.5239728680750919,0.5473277905918783,0.5684840422232842,0.5785677360598775,0.6047389977481008,0.6236786832099495,0.6337884896967032,0.6756028421791798,0.7247598383787999,0.7659339399755583,0.7615444153714956,0.7409203667297906,0.7494072540762198,0.7191880532227448,0.665587122377298,0.6051288985953489,0.5591525321279387,0.6570477938638439,0.778550917892789,0.9062394986963144,0.9464814369730674,0.8590308610092481,0.7466772587627304,0.7082826229012964,0.6997363797819349,0.6806293053364434,0.6402381270537951,0.5926425684905197,0.5804889285753387,0.6023022385016517,0.6091932101752069,0.6162667043856103,0.6354802007112719,0.6527888785420397,0.6488525900474129,0.6589082655554099,0.6665730756666632,0.6880682280743922,0.7068601470422329,0.7047139059441752,0.6705968499335553,0.6372747020365925,0.5906350439952335,0.5478117827431874,0.6025753597214476,0.6974272076149384,0.812091617217678,0.8187608394377617,0.7241967565995058,0.6860225734210776,0.6784795083035005,0.6359248882926698,0.5885018411022584,0.5286562048917434,0.5295819896769838,0.561006426521439,0.573770514494516,0.5730389414863253,0.5600596791266557,0.587384537171665,0.5927289779573157,0.5959894397366416,0.6355150464876838,0.717071919874011,0.73474715416548,0.7229714587147549,0.7236551615255258,0.695573842400206,0.6604770113229068,0.607375946616397,0.5438864631809706,0.474295127777264,0.5366710256867786,0.6565355229728169,0.7405666627467289,0.6935216788755163,0.6382656080667259,0.6731447822131096,0.6953164435269419,0.666466882350119,0.6231319852920216,0.5660760964801921,0.5628425595308837,0.6046574811570733,0.6157760028919759,0.6179812990839726,0.6450643247310448,0.6622103701848108,0.6712470063095637,0.6774630942975373,0.703213954485673,0.7409969261401583,0.746876760555292,0.748889232781929,0.7646107879949606,0.7340707403807714,0.6962382304221246,0.6397822758137974,0.5449731877195934,0.5032282793405325,0.6210974094604143,0.7589934611240756,0.8515900951369333,0.8129038569995015,0.6928862703608001,0.5678002920962091,0.4428879475913039,0.33709283088068,0.2048395802986462,0.0707107096431105,0.0,0.011167363404231,0.0950566396862653,0.2319842756631658,0.3629973532169455,0.4527410865019012,0.5507705778742942,0.6176034761693123,0.6610020024043513,0.6755026440481129,0.6641720813803724,0.639379012768222,0.5998598496318408,0.592824013779246,0.5836559674224522,0.5779063540881895,0.5494790280902562,0.5373439798482962,0.5353895111555129,0.5047642717692549,0.4725379861381666,0.4870944286229175,0.5475174914800518,0.5876318453456433,0.6021079976299983,0.5495140955331799,0.4825639771379872,0.4181456589545371,0.2991785141287124,0.2139185051341186,0.2372510912518692,0.3538251275182169,0.4627202927629192,0.5351332850739623,0.5942706276204768,0.6217266552782785,0.6426133181405818,0.649302803621747,0.6117027000216977,0.5514776447789247,0.5239119004749266,0.5188027038948535,0.5237730721293206,0.4950861491690919,0.5021530541606585,0.5036376678901378,0.4818438899072994,0.4353705684418698,0.4367148240708678,0.4890828110892151,0.5462964002970883,0.5972335275872047,0.599548963478246,0.5525994740454423,0.5294001675489604,0.4200581503688658,0.3059424890669047,0.2290504027177089,0.2839078523197451,0.3977674194162981,0.4948429889916221,0.5533651077032058,0.5834674908332493,0.6182025907676398,0.6271275911543115,0.6083737102095288,0.5887014134266919,0.5764519079159562,0.5758373609741767,0.5640867961411193,0.5422828014474383,0.5371075046484366,0.5284600235056987,0.4980098106547688,0.4773701356113977,0.5216766976013427,0.5759846293088509,0.6082737780036536,0.6227427189096897,0.570955273983385,0.5716328360364376,0.6091246912560653,0.5071148454752188,0.3875278768156747,0.2800797800119956,0.2690285014044788,0.3719487464868383,0.4855043306742499,0.5699253007010245,0.6269480573884882,0.6662097246803875,0.6764536865667541,0.6894573655056684,0.6700748279535063,0.6174966632867407,0.5747506019067887,0.5585754191740557,0.5316197397730358,0.5049125579997513,0.4903711920911759,0.4724416352861422,0.4539641570732038,0.4393193745566766,0.4503953933614846,0.5048756494702356,0.551568275665999,0.5993632583267492,0.5829972523013853,0.5148768406215578,0.5494634845605044,0.5835888102546938,0.4818837510292839,0.350899712012815,0.2319452069322261,0.1578354983148111,0.2270467945939747,0.3419513007089096,0.448236512495181,0.5332854206080757,0.5788680351525182,0.5946451495818881,0.590879187631447,0.6172151877988559,0.6142091666020022,0.6034372825951699,0.5822040542549693,0.5898884465091463,0.6350839964399286,0.6884420200430643,0.7554212823688333,0.8069289399529387,0.809253599975241,0.7980890324465957,0.7772141380192172,0.7757401322860344,0.7514866449401776,0.7428035127931301,0.7148555508691219,0.6631643236532581,0.6435468722134878,0.5913751229228081,0.5538020369506178,0.5793498960358097,0.630431421816672,0.6686659689714229,0.7057465322307701,0.7475460540302983,0.8213381349572249,0.9051820302915372,0.9381365799019664,0.93930991088732,0.9326605795916816,0.882824398052855,0.8324606191388924,0.7576865716918935,0.6785213684387097,0.5773228903108549,0.4756852716144397,0.3891750860720568,0.3058528619065956,0.2397286907566096,0.2373458392238472,0.2999853782228303,0.3740489502535062,0.4435719777054157,0.521208237010657,0.608725052285215,0.6999161163687226,0.7800248204760818,0.8765397547882889,0.9061854156773697,0.8860433987130918,0.900958903674428,0.9091925809867892,0.9351572152890631,0.9320864272514742,0.8994460686536367,0.8545359026134571,0.8306676338137606,0.7831338548276552,0.7458113832837823,0.7193887148602656,0.7103782946508526,0.6846261336090276,0.6792529488288466,0.6839093977707034,0.711580875086077,0.7379878107636708,0.7441621529774567,0.7288133548417823,0.7119707582816961,0.7117550997204276,0.7115617234644205,0.6903637660994946,0.6535776639216868,0.6168426799132503,0.5998450479618,0.582436735833018,0.6061915999115959,0.6477053163225683,0.6822944520080476,0.7405316097270083,0.7978453475993366,0.8598386380207774,0.9128603045325124,0.9669992253361804,0.9750876589944016,1.0,0.9453814728643888,0.8717517202838652,0.7995530888639415,0.7335843526805776,0.640111295614318,0.5634936655070479,0.4633515801190055,0.3616275760327374,0.2696145951203146,0.1901961153593525,0.1068048765258646,0.1026491506587641,0.157696106211592,0.2445192014852173,0.3245435708802535,0.4219258328404187,0.4967637996670655,0.5906291181221377,0.6672857472460914,0.7674131614110795,0.8494918630702042,0.9227848464218305,0.9114948487449412,0.9198738573914432,0.938664782454615,0.9168128265283864,0.9143836490537264,0.923445445230497,0.9069135984423252,0.8873564617471441,0.8361633814417004,0.7691275762685068,0.7039991440499156,0.6444166365360449,0.6007859384142442,0.582021650010109,0.5817226171759016,0.5857089770860018,0.6359142128301345,0.6477504318195066,0.6737012328433787,0.7055540095773258,0.6974942153780512,0.6734021880461851,0.6411927327016613,0.6152493860314152,0.6142177751383491,0.6010407095125725,0.5403111764336126,0.4927864387604419,0.4595464378109302,0.435591769099191,0.4199381779810966,0.4547716811331872,0.5083575232340989,0.5326200254307079,0.5819444054713196,0.6387193530627986,0.6973148794987134,0.7217193647755522,0.7549386190205922,0.7885616799412567,0.7855546724314699,0.7112224879393976,0.6374019806998836,0.5995028284243968,0.5340601748031508,0.4342849343132693,0.3342307553372183,0.2593833321318319,0.1615947025345994,0.0605499954063564,0.0,0.0259873649648678,0.1119657685550574,0.1912069501710123,0.2806660424753779,0.361804730775054,0.4580747965935323,0.5339912960235251,0.6340007535800778,0.7172195198328319,0.7921990683090803,0.8076576123983941,0.7812298785103211,0.776774062325428,0.7767721000038623,0.7767693848419457,0.7718298317408259,0.7403526458793088,0.6952770636952383,0.6444681764054438,0.5952214627222814,0.5584147740747927,0.521300396658547,0.5430168211563355,0.549558375481487,0.5688351341073377,0.59210634937486,0.6259313276884058,0.6711729653303884,0.7040560656688752,0.711746707401776,0.7072099627023452,0.6803540774975101,0.6535247301864278,0.6291515633720168,0.5936625992860955,0.5437007214030514,0.4953803781489512,0.4617155795155252,0.451745682173966,0.4608400928372083,0.5067766185783276,0.5576034791030606,0.6085252946619146,0.6585193226057564,0.6953568316964853,0.7445911443867139,0.7778168263568936,0.8046518110992329,0.8010888420333737,0.7411343019471479,0.6624242503517594,0.617398292664471,0.5767124907185428,0.4786518205957071,0.3821706793117059,0.3058362850588496,0.2074630677074544,0.142210462739083,0.1555178530654473,0.2304023662868388,0.3058467898172177,0.389175086072056,0.47565406026452,0.5676418305025317,0.6470928390149151,0.744578118825383,0.8008455933164038,0.8092741207819145,0.8109474878967768,0.8361389367245335,0.8360603694540396,0.8107707620571238,0.7911393953436558,0.7572237819761716,0.7211139771002735,0.6708531545262284,0.6200253384873635,0.5790081734244303,0.551146863567622,0.5492552432213786,0.5606365668092756,0.5853940679166776,0.6176323013757461,0.6609319927974724,0.696049250073397,0.7139657856673889,0.7337573377602062,0.7131470452386095,0.7038275343531843,0.6796415503285553,0.6549822686090776,0.6127035085369981,0.5559320778033854,0.502937914378041,0.4586886559790715,0.4626098213993597,0.4838901343301707,0.5231125798168925,0.5370486023513266,0.5189588161098546,0.4689388938575705,0.4127697910224097,0.3625811731564641,0.3129041606560969,0.2545635107702139,0.1990523190840878,0.1389151676682413,0.0813195878608787,0.0259417889882453,0.0,0.0452208952895309,0.1005349760376128,0.1593782070690528,0.2199785899959147,0.2805614157813252,0.3386935426074029,0.3926798323907929,0.4447616325001002,0.5010682889631162,0.5615551731295749,0.6221504367127877,0.6807213756550581,0.7363759850435396,0.7966364595264945,0.8572433142024947,0.9144613840766344,0.9172898797246444,0.8620956640621842,0.8068207246581309,0.7493500040963657,0.6942270369942969,0.6394469353493202,0.5890616002646045,0.5490934218933663,0.5287046013492065,0.5033035972445417,0.4621121439090188,0.4175495191554235,0.3736718031627188,0.3435061706986222,0.3542343235218197,0.3925566219743011,0.4328404376215142,0.4760150106629386,0.5167635383923788,0.5464269307893688,0.5416943114831401,0.5243375118975802,0.5078184430365138,0.5169919213056788,0.5451521285497372,0.5653163240525816,0.5734770026665377,0.5422917565005687,0.4901098379253168,0.4340603091296455,0.3775368082414891,0.3184659191247583,0.2631913462631108,0.2032118404180357,0.1444007185533983,0.0890717539393926,0.0440816181377564,0.0702934837451861,0.1250564446488198,0.1834140814090905,0.2440035893337454,0.3045414808994428,0.3617531305901318,0.4185797367878126,0.4790847427102891,0.5396958888762831,0.6003063498820158,0.660320720401566,0.7156101779085284,0.7747837622479616,0.8353881884188217,0.8959947897187726,0.9529764260580784,0.9532711573932526,0.8974559615836128,0.8423099966575052,0.7838301034819324,0.7289382424385948,0.6746255016722889,0.62511983164993,0.5850691888509467,0.564068206894206,0.5389738975812761,0.499488429392513,0.4538059731200656,0.409160378013425,0.3794987928848337,0.3892069140933283,0.4261113969390002,0.4665361352584416,0.5036756346272644,0.5344348214443915,0.5369578185463157,0.512799393268405,0.4897023321460216,0.4843314502835307,0.5059983241621446,0.5319215691766659,0.5558412808610378,0.5618766995257249,0.5246914086829348,0.4714465721052336,0.4147022644942433,0.3593920283298559,0.3003901136959964,0.2402125799236164,0.1847384445834423,0.1259206095409,0.067947939005672,0.0540345554777609,0.1013615859468026,0.1615293981663474,0.2209903689514132,0.2761743587801314,0.3360045484109044,0.3966143122910026,0.4572254584569977,0.5178035576306921,0.575797897222684,0.6319065433725977,0.6923066118335395,0.7529177579995345,0.8135289041655296,0.8741201703290051,0.9325377596399818,0.9866382969428916,1.0,0.9467492838973122,0.8915765310611179,0.8324901838566381,0.7768147469441182,0.7194267657723197,0.6662534112880674,0.6161101910698659,0.5717287434033242,0.5470981261885517,0.5208833926204575,0.4826378234716768,0.4378504438662207,0.3920222553511276,0.3487369253296435,0.3334422439613866,0.3625127777103318,0.4028807425924439,0.4451330817840535,0.4861355976262498,0.5244527162016035,0.53974865306383,0.5199511681004656,0.4962550479162348,0.478969528789523,0.4874968663625345,0.5148831491614283,0.535718919278884,0.5434479386074789,0.5126313437639964,0.4610681195572659,0.4069875356872934,0.3482926490539799,0.2886123113822816,0.2334456869730977,0.1738318281331605,0.1132232744286539,0.0528537706282984,0.0069151039477807,0.0266390324560013,0.0801386713154435,0.1391342297549669,0.1997363730057464,0.2602747751190515,0.3174954013735009,0.3743132681357259,0.4348175263822884,0.4954286725482832,0.5560398187142783,0.6166509648802732,0.6772513539287075,0.7361470661556999,0.7915815878851584,0.8517324380717648,0.9123176917678384,0.9649722435037256,0.9513352258539258,0.8947776988436065,0.836736406347079,0.7807142605021529,0.7224946301849557,0.6679015944647557,0.6156125328821715,0.5671231686732225,0.5360304049373243,0.51415260498833,0.4813057996424099,0.4384394480677345,0.3914896060688819,0.3483125576076185,0.3197959196693025,0.3384086043052665,0.3767724066550713,0.4179568728136329,0.4600720375410985,0.5033460392722684,0.5371573660565419,0.5352330385422306,0.5159016929342337,0.4994738069596565,0.4875985715931445,0.5076108216422512,0.5324803268197618,0.5456289471198081,0.5328852914371189,0.4875347299179791,0.4326658625308026,0.3724159534896618,0.3118107494135917,0.2525691725561113,0.1973061766408204,0.1373909786271947,0.0799696322544485,0.0278377155358938,0.0199276066803858,0.0692990507820999,0.127759992523104,0.1833589910931615,0.2435994937463205,0.3042104686839583,0.3648192574754592,0.4244622252934487,0.4796255420036739,0.5392940045930912,0.5999027682264968,0.6605139143924919,0.7211004539442512,0.7793664304033656,0.8352517217053081,0.8955936411029877,0.9536939090741844,0.9600567828310852,0.9071050315774014,0.8520569551749879,0.8034593636318696,0.7511060655504052,0.6940612607428014,0.6379987369754316,0.5844908617243392,0.5459519014593279,0.2846517289078405,0.3527099416789088,0.4231612647904328,0.3994324119804475,0.3659131202147514,0.311890902502749,0.2767211909089166,0.3045651512644234,0.3657140527402576,0.4224452630108508,0.4236885012192024,0.3766765007136148,0.4227412442880267,0.51245123408501,0.6051788118529577,0.680841201819081,0.6853407391561532,0.6633981603708037,0.6380313736090111,0.6225181380682763,0.6433613911990004,0.685043727532392,0.671394476046185,0.5816471799419669,0.4777440964815349,0.3703456862865755,0.2641731411092067,0.1587702737650358,0.0648759017357343,0.0853750600304674,0.1873915033520412,0.301975465686132,0.4125265491829963,0.5200737535007587,0.6313898664286399,0.737738690290715,0.8262452644195872,0.793069765948919,0.7226437941391057,0.6906859317810929,0.6585148990718768,0.597580456885936,0.5329320987911834,0.5175328258871041,0.5694579489810856,0.6270434143690982,0.65807536531949,0.6429462330986548,0.6206629238872643,0.5993279927211175,0.6055082254253175,0.6409288279353773,0.6493876363239135,0.5805745246972149,0.4765462833341809,0.366018177714156,0.2530939877946341,0.1475288458934398,0.0461999192361473,0.0209475521900508,0.1106375950695737,0.2247606213162196,0.3319551121889845,0.4429316834947348,0.5545496592525003,0.6611032944023116,0.7689969582003298,0.8240245239859578,0.756497605318827,0.7011892477026236,0.672730458546476,0.6270686521394948,0.554550625687503,0.496520427159449,0.5051926645989928,0.5597819285766965,0.6132958419366412,0.636306919627839,0.6191044273273336,0.6001518490074038,0.5785527116321076,0.5850578651970499,0.6323914511651192,0.6501681170766958,0.5859701640317199,0.4831727349145311,0.3782937253562883,0.27289916787595,0.1666625557538701,0.0615264171654037,0.0,0.0722971832284411,0.1867780739133961,0.300840861053153,0.4039661949703361,0.4981915821546057,0.6033980022953376,0.7112126398122798,0.7978772028755983,0.7641388522181605,0.6916701071006779,0.6525659795086569,0.6196482503634333,0.5641013693140118,0.5100572496878706,0.5139120257190113,0.5751258609825975,0.6393761153745761,0.6729219263897277,0.6586112647768481,0.6320482183039013,0.6030919627337452,0.5909301664171047,0.6230874713235561,0.6716397832337195,0.6591467726490792,0.5713289687101399,0.4683220672488044,0.3636353900226021,0.2575878909229743,0.1500613925121487,0.0911703049241592,0.1631252136861751,0.2756869450718693,0.3820872902940304,0.494097840864351,0.604626412839885,0.7114566556649606,0.8125134889011036,0.8270214734645691,0.745023483717397,0.6893138580180485,0.6608831142365355,0.6132790625030657,0.5437939548306345,0.4915189636238,0.5112122726859445,0.5715183000451565,0.625932288715743,0.6495134139669068,0.601040287555545,0.5476969691158007,0.5666630442130618,0.6338510925099348,0.68511981184857,0.7168912146675592,0.7667054089602989,0.8507529497843724,0.9509065209810764,0.9909535447310088,0.9145393187670932,0.8100034419734898,0.7008153556562493,0.5950637315326048,0.4888937630209966,0.4891556093864779,0.5949552384289962,0.6890672894159939,0.7196077187354182,0.7020887349413458,0.655507714866328,0.6334596981485983,0.6650393399093502,0.6879254470709393,0.7104577544398576,0.7003256712047046,0.654472208068646,0.5883241303333584,0.5518615822637329,0.599855631488976,0.6532874126429014,0.6848859725577157,0.7276825454337255,0.8092153134233917,0.9054266773834824,0.9681398102863316,0.9131023372397786,0.8015056420725939,0.6888696119602895,0.5827972845123792,0.4698092126650379,0.3840857341843953,0.4302149792615508,0.5333600228630844,0.6324055989954798,0.6896085346115939,0.6939451019227447,0.6588387278665007,0.6187649905298853,0.6291553041216149,0.6465976779227898,0.667311614042879,0.6681302908300153,0.6288741989845468,0.5753283497972568,0.5414029364236823,0.5940837987620884,0.6608227140588565,0.7061535550784059,0.7348651702966595,0.7976411292481038,0.8905994083575717,0.9765960260589056,0.9648910656016452,0.8669728554489384,0.7615518905246916,0.6504458013221082,0.5450077371908226,0.4480596224440345,0.422531606014644,0.5166020959152346,0.6182723939376986,0.6975190494400461,0.697220131206715,0.6849082951575891,0.6492228655473964,0.64780784157074,0.6665364693456284,0.6884998780992411,0.6921039786469487,0.6554678511948997,0.5957567381312123,0.5632662421984378,0.6161864240508246,0.6818457556941353,0.7192424419126384,0.7457699198439389,0.8150493273936492,0.9128051276092136,1.0,0.9996247942219868,0.9083155254539044,0.8013981269879,0.6935311577546006,0.5836934067412924,0.4737246257998222,0.4639267190152993,0.5626087755983247,0.6631855152400794,0.7293031632380882,0.7336469625191131,0.7016635663837971,0.6636523291618026,0.6632825271115537,0.6887171982689986,0.7105181561994174,0.7326555579879859,0.7063354756789524,0.6295277300856483,0.5365219645674757,0.4920606503655644,0.4458597102566604,0.4876528391536712,0.5551197083793586,0.6001989714189904
